seconds,mV
10.000,-0.325
10.003,-0.346
10.006,-0.342
10.008,-0.332
10.011,-0.312
10.014,-0.278
10.017,-0.281
10.019,-0.305
10.022,-0.325
10.025,-0.312
10.028,-0.295
10.031,-0.278
10.033,-0.278
10.036,-0.285
10.039,-0.285
10.042,-0.278
10.044,-0.258
10.047,-0.247
10.050,-0.251
10.053,-0.268
10.056,-0.288
10.058,-0.261
10.061,-0.227
10.064,-0.217
10.067,-0.217
10.069,-0.234
10.072,-0.288
10.075,-0.315
10.078,-0.298
10.081,-0.244
10.083,-0.224
10.086,-0.244
10.089,-0.264
10.092,-0.261
10.094,-0.220
10.097,-0.169
10.100,-0.139
10.103,-0.139
10.106,-0.180
10.108,-0.217
10.111,-0.220
10.114,-0.197
10.117,-0.173
10.119,-0.149
10.122,-0.159
10.125,-0.176
10.128,-0.176
10.131,-0.149
10.133,-0.115
10.136,-0.088
10.139,-0.081
10.142,-0.075
10.144,-0.054
10.147,-0.041
10.150,-0.020
10.153,0.007
10.156,0.024
10.158,0.047
10.161,0.081
10.164,0.129
10.167,0.166
10.169,0.169
10.172,0.176
10.175,0.203
10.178,0.244
10.181,0.251
10.183,0.275
10.186,0.332
10.189,0.346
10.192,0.349
10.194,0.380
10.197,0.417
10.200,0.444
10.203,0.464
10.206,0.478
10.208,0.468
10.211,0.485
10.214,0.519
10.217,0.546
10.219,0.559
10.222,0.542
10.225,0.508
10.228,0.515
10.231,0.539
10.233,0.549
10.236,0.559
10.239,0.556
10.242,0.553
10.244,0.549
10.247,0.546
10.250,0.505
10.253,0.471
10.256,0.447
10.258,0.424
10.261,0.407
10.264,0.380
10.267,0.373
10.269,0.369
10.272,0.346
10.275,0.302
10.278,0.251
10.281,0.190
10.283,0.153
10.286,0.142
10.289,0.119
10.292,0.075
10.294,0.034
10.297,0.003
10.300,-0.024
10.303,-0.044
10.306,-0.064
10.308,-0.092
10.311,-0.119
10.314,-0.136
10.317,-0.142
10.319,-0.149
10.322,-0.166
10.325,-0.173
10.328,-0.169
10.331,-0.180
10.333,-0.207
10.336,-0.227
10.339,-0.237
10.342,-0.241
10.344,-0.251
10.347,-0.268
10.350,-0.275
10.353,-0.278
10.356,-0.292
10.358,-0.302
10.361,-0.288
10.364,-0.278
10.367,-0.278
10.369,-0.302
10.372,-0.325
10.375,-0.319
10.378,-0.315
10.381,-0.302
10.383,-0.281
10.386,-0.275
10.389,-0.298
10.392,-0.302
10.394,-0.292
10.397,-0.275
10.400,-0.268
10.403,-0.275
10.406,-0.295
10.408,-0.308
10.411,-0.308
10.414,-0.292
10.417,-0.264
10.419,-0.254
10.422,-0.261
10.425,-0.268
10.428,-0.278
10.431,-0.288
10.433,-0.295
10.436,-0.292
10.439,-0.268
10.442,-0.258
10.444,-0.244
10.447,-0.224
10.450,-0.217
10.453,-0.217
10.456,-0.217
10.458,-0.214
10.461,-0.217
10.464,-0.210
10.467,-0.183
10.469,-0.176
10.472,-0.186
10.475,-0.200
10.478,-0.193
10.481,-0.159
10.483,-0.139
10.486,-0.146
10.489,-0.180
10.492,-0.203
10.494,-0.203
10.497,-0.186
10.500,-0.163
10.503,-0.156
10.506,-0.169
10.508,-0.200
10.511,-0.207
10.514,-0.190
10.517,-0.173
10.519,-0.166
10.522,-0.183
10.525,-0.207
10.528,-0.207
10.531,-0.186
10.533,-0.163
10.536,-0.169
10.539,-0.183
10.542,-0.180
10.544,-0.169
10.547,-0.163
10.550,-0.159
10.553,-0.156
10.556,-0.186
10.558,-0.227
10.561,-0.247
10.564,-0.237
10.567,-0.217
10.569,-0.197
10.572,-0.197
10.575,-0.234
10.578,-0.264
10.581,-0.264
10.583,-0.247
10.586,-0.237
10.589,-0.247
10.592,-0.268
10.594,-0.254
10.597,-0.207
10.600,-0.180
10.603,-0.200
10.606,-0.254
10.608,-0.268
10.611,-0.254
10.614,-0.251
10.617,-0.224
10.619,-0.207
10.622,-0.224
10.625,-0.244
10.628,-0.237
10.631,-0.224
10.633,-0.224
10.636,-0.241
10.639,-0.271
10.642,-0.268
10.644,-0.251
10.647,-0.234
10.650,-0.217
10.653,-0.224
10.656,-0.237
10.658,-0.261
10.661,-0.247
10.664,-0.231
10.667,-0.227
10.669,-0.234
10.672,-0.234
10.675,-0.234
10.678,-0.237
10.681,-0.244
10.683,-0.251
10.686,-0.244
10.689,-0.261
10.692,-0.271
10.694,-0.254
10.697,-0.214
10.700,-0.166
10.703,-0.142
10.706,-0.163
10.708,-0.207
10.711,-0.258
10.714,-0.292
10.717,-0.285
10.719,-0.278
10.722,-0.292
10.725,-0.288
10.728,-0.278
10.731,-0.264
10.733,-0.264
10.736,-0.275
10.739,-0.258
10.742,-0.244
10.744,-0.241
10.747,-0.237
10.750,-0.231
10.753,-0.244
10.756,-0.264
10.758,-0.261
10.761,-0.220
10.764,-0.186
10.767,-0.163
10.769,-0.163
10.772,-0.169
10.775,-0.183
10.778,-0.190
10.781,-0.176
10.783,-0.156
10.786,-0.132
10.789,-0.112
10.792,-0.115
10.794,-0.115
10.797,-0.108
10.800,-0.078
10.803,-0.061
10.806,-0.071
10.808,-0.081
10.811,-0.088
10.814,-0.088
10.817,-0.075
10.819,-0.061
10.822,-0.051
10.825,-0.058
10.828,-0.085
10.831,-0.105
10.833,-0.108
10.836,-0.102
10.839,-0.115
10.842,-0.132
10.844,-0.142
10.847,-0.142
10.850,-0.136
10.853,-0.149
10.856,-0.186
10.858,-0.234
10.861,-0.244
10.864,-0.241
10.867,-0.254
10.869,-0.285
10.872,-0.302
10.875,-0.312
10.878,-0.312
10.881,-0.305
10.883,-0.305
10.886,-0.308
10.889,-0.315
10.892,-0.302
10.894,-0.278
10.897,-0.271
10.900,-0.281
10.903,-0.305
10.906,-0.319
10.908,-0.322
10.911,-0.312
10.914,-0.312
10.917,-0.322
10.919,-0.346
10.922,-0.366
10.925,-0.349
10.928,-0.275
10.931,-0.169
10.933,-0.061
10.936,0.071
10.939,0.285
10.942,0.583
10.944,1.014
10.947,1.610
10.950,2.329
10.953,3.017
10.956,3.468
10.958,3.502
10.961,3.220
10.964,2.793
10.967,2.244
10.969,1.512
10.972,0.614
10.975,-0.136
10.978,-0.559
10.981,-0.708
10.983,-0.647
10.986,-0.512
10.989,-0.420
10.992,-0.390
10.994,-0.400
10.997,-0.407
11.000,-0.400
11.003,-0.373
11.006,-0.342
11.008,-0.312
11.011,-0.305
11.014,-0.302
11.017,-0.285
11.019,-0.278
11.022,-0.298
11.025,-0.336
11.028,-0.346
11.031,-0.325
11.033,-0.292
11.036,-0.292
11.039,-0.302
11.042,-0.312
11.044,-0.305
11.047,-0.285
11.050,-0.278
11.053,-0.285
11.056,-0.295
11.058,-0.298
11.061,-0.295
11.064,-0.281
11.067,-0.264
11.069,-0.264
11.072,-0.278
11.075,-0.285
11.078,-0.285
11.081,-0.264
11.083,-0.254
11.086,-0.251
11.089,-0.258
11.092,-0.271
11.094,-0.268
11.097,-0.234
11.100,-0.200
11.103,-0.210
11.106,-0.254
11.108,-0.292
11.111,-0.285
11.114,-0.261
11.117,-0.241
11.119,-0.227
11.122,-0.231
11.125,-0.234
11.128,-0.217
11.131,-0.186
11.133,-0.190
11.136,-0.203
11.139,-0.193
11.142,-0.169
11.144,-0.153
11.147,-0.163
11.150,-0.173
11.153,-0.159
11.156,-0.139
11.158,-0.142
11.161,-0.136
11.164,-0.119
11.167,-0.095
11.169,-0.078
11.172,-0.078
11.175,-0.088
11.178,-0.092
11.181,-0.064
11.183,-0.017
11.186,0.024
11.189,0.041
11.192,0.044
11.194,0.071
11.197,0.125
11.200,0.166
11.203,0.193
11.206,0.200
11.208,0.193
11.211,0.207
11.214,0.271
11.217,0.319
11.219,0.322
11.222,0.325
11.225,0.353
11.228,0.383
11.231,0.424
11.233,0.451
11.236,0.461
11.239,0.471
11.242,0.478
11.244,0.508
11.247,0.549
11.250,0.580
11.253,0.590
11.256,0.556
11.258,0.539
11.261,0.556
11.264,0.580
11.267,0.580
11.269,0.569
11.272,0.573
11.275,0.580
11.278,0.580
11.281,0.563
11.283,0.522
11.286,0.485
11.289,0.451
11.292,0.424
11.294,0.397
11.297,0.376
11.300,0.353
11.303,0.319
11.306,0.278
11.308,0.251
11.311,0.231
11.314,0.203
11.317,0.180
11.319,0.139
11.322,0.078
11.325,0.003
11.328,-0.058
11.331,-0.075
11.333,-0.068
11.336,-0.092
11.339,-0.122
11.342,-0.139
11.344,-0.153
11.347,-0.146
11.350,-0.156
11.353,-0.197
11.356,-0.210
11.358,-0.197
11.361,-0.190
11.364,-0.200
11.367,-0.220
11.369,-0.237
11.372,-0.251
11.375,-0.254
11.378,-0.258
11.381,-0.251
11.383,-0.224
11.386,-0.237
11.389,-0.268
11.392,-0.278
11.394,-0.278
11.397,-0.271
11.400,-0.268
11.403,-0.251
11.406,-0.241
11.408,-0.251
11.411,-0.275
11.414,-0.288
11.417,-0.288
11.419,-0.278
11.422,-0.292
11.425,-0.319
11.428,-0.322
11.431,-0.305
11.433,-0.288
11.436,-0.281
11.439,-0.268
11.442,-0.288
11.444,-0.312
11.447,-0.315
11.450,-0.295
11.453,-0.292
11.456,-0.305
11.458,-0.315
11.461,-0.308
11.464,-0.285
11.467,-0.275
11.469,-0.288
11.472,-0.308
11.475,-0.322
11.478,-0.322
11.481,-0.298
11.483,-0.275
11.486,-0.278
11.489,-0.298
11.492,-0.305
11.494,-0.302
11.497,-0.271
11.500,-0.247
11.503,-0.254
11.506,-0.244
11.508,-0.224
11.511,-0.224
11.514,-0.227
11.517,-0.234
11.519,-0.231
11.522,-0.217
11.525,-0.227
11.528,-0.224
11.531,-0.210
11.533,-0.200
11.536,-0.186
11.539,-0.197
11.542,-0.227
11.544,-0.251
11.547,-0.254
11.550,-0.241
11.553,-0.214
11.556,-0.214
11.558,-0.234
11.561,-0.241
11.564,-0.220
11.567,-0.210
11.569,-0.224
11.572,-0.234
11.575,-0.231
11.578,-0.210
11.581,-0.197
11.583,-0.203
11.586,-0.220
11.589,-0.214
11.592,-0.183
11.594,-0.186
11.597,-0.197
11.600,-0.200
11.603,-0.227
11.606,-0.261
11.608,-0.264
11.611,-0.254
11.614,-0.241
11.617,-0.234
11.619,-0.234
11.622,-0.241
11.625,-0.247
11.628,-0.247
11.631,-0.234
11.633,-0.207
11.636,-0.203
11.639,-0.231
11.642,-0.241
11.644,-0.234
11.647,-0.220
11.650,-0.217
11.653,-0.224
11.656,-0.237
11.658,-0.254
11.661,-0.268
11.664,-0.268
11.667,-0.244
11.669,-0.241
11.672,-0.247
11.675,-0.261
11.678,-0.258
11.681,-0.247
11.683,-0.244
11.686,-0.251
11.689,-0.254
11.692,-0.258
11.694,-0.251
11.697,-0.231
11.700,-0.224
11.703,-0.237
11.706,-0.247
11.708,-0.258
11.711,-0.254
11.714,-0.227
11.717,-0.210
11.719,-0.210
11.722,-0.234
11.725,-0.251
11.728,-0.237
11.731,-0.224
11.733,-0.244
11.736,-0.271
11.739,-0.268
11.742,-0.247
11.744,-0.241
11.747,-0.241
11.750,-0.241
11.753,-0.231
11.756,-0.241
11.758,-0.258
11.761,-0.264
11.764,-0.268
11.767,-0.264
11.769,-0.264
11.772,-0.278
11.775,-0.285
11.778,-0.268
11.781,-0.237
11.783,-0.217
11.786,-0.220
11.789,-0.237
11.792,-0.251
11.794,-0.264
11.797,-0.251
11.800,-0.241
11.803,-0.241
11.806,-0.258
11.808,-0.271
11.811,-0.268
11.814,-0.254
11.817,-0.234
11.819,-0.210
11.822,-0.203
11.825,-0.210
11.828,-0.210
11.831,-0.186
11.833,-0.163
11.836,-0.159
11.839,-0.159
11.842,-0.159
11.844,-0.153
11.847,-0.132
11.850,-0.102
11.853,-0.085
11.856,-0.075
11.858,-0.064
11.861,-0.061
11.864,-0.054
11.867,-0.054
11.869,-0.075
11.872,-0.088
11.875,-0.085
11.878,-0.068
11.881,-0.044
11.883,-0.037
11.886,-0.061
11.889,-0.081
11.892,-0.098
11.894,-0.125
11.897,-0.149
11.900,-0.156
11.903,-0.153
11.906,-0.159
11.908,-0.180
11.911,-0.200
11.914,-0.227
11.917,-0.247
11.919,-0.251
11.922,-0.254
11.925,-0.275
11.928,-0.295
11.931,-0.302
11.933,-0.302
11.936,-0.305
11.939,-0.312
11.942,-0.329
11.944,-0.325
11.947,-0.312
11.950,-0.302
11.953,-0.302
11.956,-0.298
11.958,-0.305
11.961,-0.302
11.964,-0.292
11.967,-0.288
11.969,-0.305
11.972,-0.325
11.975,-0.349
11.978,-0.366
11.981,-0.339
11.983,-0.278
11.986,-0.193
11.989,-0.102
11.992,0.041
11.994,0.261
11.997,0.573
12.000,1.014
12.003,1.597
12.006,2.268
12.008,2.929
12.011,3.373
12.014,3.437
12.017,3.183
12.019,2.786
12.022,2.278
12.025,1.553
12.028,0.647
12.031,-0.095
12.033,-0.515
12.036,-0.688
12.039,-0.664
12.042,-0.536
12.044,-0.434
12.047,-0.397
12.050,-0.397
12.053,-0.393
12.056,-0.386
12.058,-0.359
12.061,-0.332
12.064,-0.319
12.067,-0.319
12.069,-0.319
12.072,-0.315
12.075,-0.325
12.078,-0.336
12.081,-0.325
12.083,-0.312
12.086,-0.308
12.089,-0.308
12.092,-0.322
12.094,-0.319
12.097,-0.295
12.100,-0.271
12.103,-0.278
12.106,-0.295
12.108,-0.319
12.111,-0.312
12.114,-0.292
12.117,-0.292
12.119,-0.278
12.122,-0.264
12.125,-0.281
12.128,-0.295
12.131,-0.281
12.133,-0.268
12.136,-0.275
12.139,-0.288
12.142,-0.292
12.144,-0.285
12.147,-0.268
12.150,-0.244
12.153,-0.268
12.156,-0.285
12.158,-0.275
12.161,-0.261
12.164,-0.254
12.167,-0.247
12.169,-0.237
12.172,-0.237
12.175,-0.251
12.178,-0.251
12.181,-0.237
12.183,-0.220
12.186,-0.220
12.189,-0.217
12.192,-0.214
12.194,-0.224
12.197,-0.214
12.200,-0.197
12.203,-0.180
12.206,-0.186
12.208,-0.200
12.211,-0.190
12.214,-0.169
12.217,-0.136
12.219,-0.115
12.222,-0.108
12.225,-0.115
12.228,-0.105
12.231,-0.071
12.233,-0.041
12.236,-0.027
12.239,-0.014
12.242,-0.003
12.244,0.007
12.247,0.034
12.250,0.068
12.253,0.088
12.256,0.102
12.258,0.122
12.261,0.166
12.264,0.210
12.267,0.237
12.269,0.275
12.272,0.305
12.275,0.315
12.278,0.339
12.281,0.359
12.283,0.393
12.286,0.427
12.289,0.437
12.292,0.447
12.294,0.475
12.297,0.498
12.300,0.519
12.303,0.532
12.306,0.539
12.308,0.546
12.311,0.563
12.314,0.580
12.317,0.590
12.319,0.590
12.322,0.583
12.325,0.569
12.328,0.569
12.331,0.576
12.333,0.569
12.336,0.549
12.339,0.515
12.342,0.485
12.344,0.458
12.347,0.447
12.350,0.441
12.353,0.407
12.356,0.363
12.358,0.319
12.361,0.285
12.364,0.258
12.367,0.234
12.369,0.197
12.372,0.153
12.375,0.105
12.378,0.075
12.381,0.061
12.383,0.041
12.386,0.010
12.389,-0.020
12.392,-0.058
12.394,-0.098
12.397,-0.132
12.400,-0.139
12.403,-0.153
12.406,-0.176
12.408,-0.193
12.411,-0.197
12.414,-0.200
12.417,-0.203
12.419,-0.217
12.422,-0.220
12.425,-0.231
12.428,-0.244
12.431,-0.258
12.433,-0.251
12.436,-0.251
12.439,-0.268
12.442,-0.271
12.444,-0.261
12.447,-0.258
12.450,-0.258
12.453,-0.254
12.456,-0.258
12.458,-0.271
12.461,-0.275
12.464,-0.268
12.467,-0.264
12.469,-0.271
12.472,-0.288
12.475,-0.298
12.478,-0.298
12.481,-0.278
12.483,-0.278
12.486,-0.288
12.489,-0.295
12.492,-0.305
12.494,-0.312
12.497,-0.302
12.500,-0.285
12.503,-0.292
12.506,-0.305
12.508,-0.308
12.511,-0.315
12.514,-0.302
12.517,-0.278
12.519,-0.288
12.522,-0.308
12.525,-0.312
12.528,-0.315
12.531,-0.305
12.533,-0.281
12.536,-0.281
12.539,-0.295
12.542,-0.288
12.544,-0.271
12.547,-0.254
12.550,-0.251
12.553,-0.258
12.556,-0.264
12.558,-0.275
12.561,-0.268
12.564,-0.261
12.567,-0.247
12.569,-0.231
12.572,-0.217
12.575,-0.220
12.578,-0.234
12.581,-0.237
12.583,-0.227
12.586,-0.220
12.589,-0.224
12.592,-0.220
12.594,-0.227
12.597,-0.224
12.600,-0.217
12.603,-0.203
12.606,-0.203
12.608,-0.214
12.611,-0.220
12.614,-0.214
12.617,-0.207
12.619,-0.214
12.622,-0.231
12.625,-0.244
12.628,-0.241
12.631,-0.227
12.633,-0.231
12.636,-0.237
12.639,-0.237
12.642,-0.234
12.644,-0.244
12.647,-0.247
12.650,-0.227
12.653,-0.217
12.656,-0.220
12.658,-0.234
12.661,-0.244
12.664,-0.244
12.667,-0.234
12.669,-0.231
12.672,-0.247
12.675,-0.261
12.678,-0.258
12.681,-0.244
12.683,-0.231
12.686,-0.237
12.689,-0.261
12.692,-0.268
12.694,-0.261
12.697,-0.247
12.700,-0.247
12.703,-0.244
12.706,-0.251
12.708,-0.264
12.711,-0.268
12.714,-0.254
12.717,-0.234
12.719,-0.237
12.722,-0.254
12.725,-0.268
12.728,-0.271
12.731,-0.271
12.733,-0.264
12.736,-0.268
12.739,-0.264
12.742,-0.254
12.744,-0.251
12.747,-0.258
12.750,-0.251
12.753,-0.247
12.756,-0.264
12.758,-0.278
12.761,-0.271
12.764,-0.251
12.767,-0.244
12.769,-0.258
12.772,-0.268
12.775,-0.271
12.778,-0.271
12.781,-0.261
12.783,-0.251
12.786,-0.254
12.789,-0.264
12.792,-0.271
12.794,-0.275
12.797,-0.264
12.800,-0.247
12.803,-0.244
12.806,-0.268
12.808,-0.275
12.811,-0.271
12.814,-0.258
12.817,-0.247
12.819,-0.244
12.822,-0.237
12.825,-0.241
12.828,-0.231
12.831,-0.210
12.833,-0.193
12.836,-0.183
12.839,-0.183
12.842,-0.190
12.844,-0.190
12.847,-0.173
12.850,-0.149
12.853,-0.146
12.856,-0.156
12.858,-0.153
12.861,-0.119
12.864,-0.081
12.867,-0.068
12.869,-0.071
12.872,-0.081
12.875,-0.108
12.878,-0.129
12.881,-0.115
12.883,-0.081
12.886,-0.058
12.889,-0.051
12.892,-0.071
12.894,-0.105
12.897,-0.112
12.900,-0.115
12.903,-0.139
12.906,-0.163
12.908,-0.183
12.911,-0.183
12.914,-0.180
12.917,-0.183
12.919,-0.210
12.922,-0.244
12.925,-0.278
12.928,-0.295
12.931,-0.288
12.933,-0.271
12.936,-0.281
12.939,-0.298
12.942,-0.302
12.944,-0.315
12.947,-0.332
12.950,-0.325
12.953,-0.315
12.956,-0.319
12.958,-0.329
12.961,-0.336
12.964,-0.322
12.967,-0.298
12.969,-0.298
12.972,-0.305
12.975,-0.322
12.978,-0.332
12.981,-0.339
12.983,-0.339
12.986,-0.359
12.989,-0.366
12.992,-0.332
12.994,-0.258
12.997,-0.163
13.000,-0.027
13.003,0.159
13.006,0.400
13.008,0.742
13.011,1.264
13.014,1.942
13.017,2.671
13.019,3.261
13.022,3.505
13.025,3.346
13.028,2.969
13.031,2.519
13.033,1.912
13.036,1.058
13.039,0.169
13.042,-0.420
13.044,-0.698
13.047,-0.729
13.050,-0.607
13.053,-0.488
13.056,-0.431
13.058,-0.431
13.061,-0.434
13.064,-0.417
13.067,-0.383
13.069,-0.356
13.072,-0.353
13.075,-0.356
13.078,-0.342
13.081,-0.329
13.083,-0.322
13.086,-0.319
13.089,-0.322
13.092,-0.339
13.094,-0.346
13.097,-0.339
13.100,-0.312
13.103,-0.298
13.106,-0.315
13.108,-0.315
13.111,-0.308
13.114,-0.298
13.117,-0.288
13.119,-0.292
13.122,-0.312
13.125,-0.329
13.128,-0.329
13.131,-0.315
13.133,-0.295
13.136,-0.288
13.139,-0.298
13.142,-0.315
13.144,-0.322
13.147,-0.312
13.150,-0.285
13.153,-0.275
13.156,-0.285
13.158,-0.298
13.161,-0.295
13.164,-0.292
13.167,-0.275
13.169,-0.264
13.172,-0.271
13.175,-0.271
13.178,-0.271
13.181,-0.261
13.183,-0.251
13.186,-0.237
13.189,-0.241
13.192,-0.247
13.194,-0.241
13.197,-0.217
13.200,-0.207
13.203,-0.217
13.206,-0.231
13.208,-0.217
13.211,-0.207
13.214,-0.217
13.217,-0.210
13.219,-0.186
13.222,-0.176
13.225,-0.176
13.228,-0.173
13.231,-0.142
13.233,-0.112
13.236,-0.098
13.239,-0.102
13.242,-0.098
13.244,-0.071
13.247,-0.034
13.250,-0.007
13.253,0.017
13.256,0.037
13.258,0.041
13.261,0.047
13.264,0.068
13.267,0.119
13.269,0.153
13.272,0.169
13.275,0.180
13.278,0.203
13.281,0.251
13.283,0.302
13.286,0.336
13.289,0.353
13.292,0.363
13.294,0.390
13.297,0.420
13.300,0.444
13.303,0.478
13.306,0.495
13.308,0.495
13.311,0.508
13.314,0.522
13.317,0.542
13.319,0.553
13.322,0.563
13.325,0.563
13.328,0.566
13.331,0.573
13.333,0.576
13.336,0.573
13.339,0.576
13.342,0.573
13.344,0.553
13.347,0.525
13.350,0.508
13.353,0.481
13.356,0.451
13.358,0.424
13.361,0.397
13.364,0.366
13.367,0.349
13.369,0.312
13.372,0.268
13.375,0.231
13.378,0.197
13.381,0.159
13.383,0.122
13.386,0.095
13.389,0.047
13.392,0.003
13.394,-0.017
13.397,-0.031
13.400,-0.044
13.403,-0.081
13.406,-0.132
13.408,-0.183
13.411,-0.214
13.414,-0.227
13.417,-0.105
13.419,0.403
13.422,-1.688
13.425,-3.092
13.428,-3.383
13.431,-3.319
13.433,-2.224
13.436,-2.054
13.439,-2.014
13.442,-2.298
13.444,-2.790
13.447,-2.397
13.450,-2.505
13.453,-1.881
13.456,-0.495
13.458,0.098
13.461,-0.102
13.464,-0.325
13.467,-0.319
13.469,-0.261
13.472,-0.261
13.475,-0.292
13.478,-0.305
13.481,-0.288
13.483,-0.268
13.486,-0.281
13.489,-0.292
13.492,-0.288
13.494,-0.305
13.497,-0.319
13.500,-0.305
13.503,-0.302
13.506,-0.312
13.508,-0.322
13.511,-0.329
13.514,-0.325
13.517,-0.305
13.519,-0.312
13.522,-0.336
13.525,-0.339
13.528,-0.339
13.531,-0.319
13.533,-0.312
13.536,-0.312
13.539,-0.319
13.542,-0.325
13.544,-0.325
13.547,-0.312
13.550,-0.292
13.553,-0.288
13.556,-0.302
13.558,-0.315
13.561,-0.305
13.564,-0.275
13.567,-0.258
13.569,-0.271
13.572,-0.285
13.575,-0.295
13.578,-0.285
13.581,-0.264
13.583,-0.237
13.586,-0.244
13.589,-0.261
13.592,-0.261
13.594,-0.254
13.597,-0.237
13.600,-0.217
13.603,-0.217
13.606,-0.244
13.608,-0.268
13.611,-0.258
13.614,-0.241
13.617,-0.234
13.619,-0.237
13.622,-0.247
13.625,-0.241
13.628,-0.241
13.631,-0.244
13.633,-0.244
13.636,-0.241
13.639,-0.254
13.642,-0.264
13.644,-0.251
13.647,-0.231
13.650,-0.237
13.653,-0.251
13.656,-0.254
13.658,-0.261
13.661,-0.271
13.664,-0.258
13.667,-0.234
13.669,-0.231
13.672,-0.251
13.675,-0.261
13.678,-0.268
13.681,-0.258
13.683,-0.241
13.686,-0.241
13.689,-0.258
13.692,-0.295
13.694,-0.305
13.697,-0.288
13.700,-0.271
13.703,-0.261
13.706,-0.258
13.708,-0.278
13.711,-0.285
13.714,-0.271
13.717,-0.264
13.719,-0.271
13.722,-0.268
13.725,-0.261
13.728,-0.271
13.731,-0.275
13.733,-0.275
13.736,-0.268
13.739,-0.275
13.742,-0.275
13.744,-0.275
13.747,-0.275
13.750,-0.275
13.753,-0.275
13.756,-0.278
13.758,-0.275
13.761,-0.261
13.764,-0.247
13.767,-0.247
13.769,-0.254
13.772,-0.258
13.775,-0.281
13.778,-0.295
13.781,-0.275
13.783,-0.254
13.786,-0.264
13.789,-0.278
13.792,-0.302
13.794,-0.305
13.797,-0.278
13.800,-0.254
13.803,-0.264
13.806,-0.275
13.808,-0.275
13.811,-0.281
13.814,-0.271
13.817,-0.247
13.819,-0.244
13.822,-0.264
13.825,-0.278
13.828,-0.281
13.831,-0.281
13.833,-0.285
13.836,-0.278
13.839,-0.285
13.842,-0.285
13.844,-0.281
13.847,-0.278
13.850,-0.275
13.853,-0.268
13.856,-0.268
13.858,-0.278
13.861,-0.278
13.864,-0.268
13.867,-0.258
13.869,-0.268
13.872,-0.275
13.875,-0.278
13.878,-0.285
13.881,-0.268
13.883,-0.254
13.886,-0.244
13.889,-0.234
13.892,-0.231
13.894,-0.224
13.897,-0.220
13.900,-0.207
13.903,-0.186
13.906,-0.169
13.908,-0.166
13.911,-0.173
13.914,-0.166
13.917,-0.136
13.919,-0.108
13.922,-0.095
13.925,-0.085
13.928,-0.075
13.931,-0.068
13.933,-0.075
13.936,-0.095
13.939,-0.108
13.942,-0.108
13.944,-0.095
13.947,-0.092
13.950,-0.092
13.953,-0.112
13.956,-0.136
13.958,-0.156
13.961,-0.156
13.964,-0.142
13.967,-0.142
13.969,-0.159
13.972,-0.190
13.975,-0.217
13.978,-0.234
13.981,-0.237
13.983,-0.244
13.986,-0.264
13.989,-0.288
13.992,-0.305
13.994,-0.315
13.997,-0.325
14.000,-0.325
14.003,-0.319
14.006,-0.315
14.008,-0.312
14.011,-0.325
14.014,-0.322
14.017,-0.305
14.019,-0.308
14.022,-0.322
14.025,-0.329
14.028,-0.332
14.031,-0.329
14.033,-0.322
14.036,-0.319
14.039,-0.342
14.042,-0.390
14.044,-0.407
14.047,-0.356
14.050,-0.261
14.053,-0.166
14.056,-0.051
14.058,0.122
14.061,0.376
14.064,0.732
14.067,1.241
14.069,1.895
14.072,2.593
14.075,3.173
14.078,3.420
14.081,3.281
14.083,2.915
14.086,2.468
14.089,1.871
14.092,1.031
14.094,0.173
14.097,-0.393
14.100,-0.675
14.103,-0.736
14.106,-0.637
14.108,-0.515
14.111,-0.454
14.114,-0.441
14.117,-0.427
14.119,-0.403
14.122,-0.376
14.125,-0.363
14.128,-0.356
14.131,-0.356
14.133,-0.356
14.136,-0.339
14.139,-0.329
14.142,-0.339
14.144,-0.353
14.147,-0.356
14.150,-0.336
14.153,-0.332
14.156,-0.342
14.158,-0.349
14.161,-0.349
14.164,-0.339
14.167,-0.322
14.169,-0.325
14.172,-0.322
14.175,-0.336
14.178,-0.346
14.181,-0.332
14.183,-0.308
14.186,-0.308
14.189,-0.315
14.192,-0.329
14.194,-0.332
14.197,-0.312
14.200,-0.298
14.203,-0.295
14.206,-0.292
14.208,-0.302
14.211,-0.305
14.214,-0.295
14.217,-0.288
14.219,-0.298
14.222,-0.298
14.225,-0.295
14.228,-0.295
14.231,-0.288
14.233,-0.271
14.236,-0.271
14.239,-0.264
14.242,-0.268
14.244,-0.278
14.247,-0.264
14.250,-0.237
14.253,-0.241
14.256,-0.244
14.258,-0.251
14.261,-0.258
14.264,-0.254
14.267,-0.237
14.269,-0.217
14.272,-0.210
14.275,-0.214
14.278,-0.200
14.281,-0.180
14.283,-0.156
14.286,-0.142
14.289,-0.132
14.292,-0.122
14.294,-0.108
14.297,-0.098
14.300,-0.078
14.303,-0.054
14.306,-0.047
14.308,-0.034
14.311,-0.010
14.314,0.010
14.317,0.047
14.319,0.075
14.322,0.102
14.325,0.122
14.328,0.153
14.331,0.186
14.333,0.217
14.336,0.244
14.339,0.271
14.342,0.295
14.344,0.312
14.347,0.349
14.350,0.380
14.353,0.407
14.356,0.427
14.358,0.441
14.361,0.458
14.364,0.492
14.367,0.519
14.369,0.522
14.372,0.515
14.375,0.505
14.378,0.525
14.381,0.546
14.383,0.566
14.386,0.569
14.389,0.553
14.392,0.529
14.394,0.522
14.397,0.536
14.400,0.546
14.403,0.532
14.406,0.495
14.408,0.447
14.411,0.417
14.414,0.410
14.417,0.403
14.419,0.383
14.422,0.353
14.425,0.305
14.428,0.254
14.431,0.214
14.433,0.200
14.436,0.173
14.439,0.132
14.442,0.085
14.444,0.044
14.447,0.024
14.450,0.003
14.453,-0.031
14.456,-0.075
14.458,-0.098
14.461,-0.119
14.464,-0.122
14.467,-0.132
14.469,-0.142
14.472,-0.166
14.475,-0.203
14.478,-0.224
14.481,-0.231
14.483,-0.234
14.486,-0.244
14.489,-0.251
14.492,-0.251
14.494,-0.251
14.497,-0.258
14.500,-0.261
14.503,-0.254
14.506,-0.268
14.508,-0.285
14.511,-0.278
14.514,-0.264
14.517,-0.261
14.519,-0.278
14.522,-0.295
14.525,-0.305
14.528,-0.302
14.531,-0.281
14.533,-0.281
14.536,-0.288
14.539,-0.308
14.542,-0.325
14.544,-0.325
14.547,-0.322
14.550,-0.315
14.553,-0.319
14.556,-0.329
14.558,-0.336
14.561,-0.336
14.564,-0.329
14.567,-0.322
14.569,-0.322
14.572,-0.322
14.575,-0.319
14.578,-0.308
14.581,-0.308
14.583,-0.315
14.586,-0.312
14.589,-0.342
14.592,-0.349
14.594,-0.336
14.597,-0.322
14.600,-0.308
14.603,-0.295
14.606,-0.295
14.608,-0.305
14.611,-0.305
14.614,-0.312
14.617,-0.298
14.619,-0.271
14.622,-0.271
14.625,-0.278
14.628,-0.281
14.631,-0.271
14.633,-0.258
14.636,-0.241
14.639,-0.244
14.642,-0.264
14.644,-0.278
14.647,-0.261
14.650,-0.237
14.653,-0.231
14.656,-0.244
14.658,-0.258
14.661,-0.264
14.664,-0.244
14.667,-0.214
14.669,-0.210
14.672,-0.227
14.675,-0.244
14.678,-0.251
14.681,-0.244
14.683,-0.247
14.686,-0.237
14.689,-0.234
14.692,-0.244
14.694,-0.254
14.697,-0.247
14.700,-0.241
14.703,-0.247
14.706,-0.254
14.708,-0.251
14.711,-0.244
14.714,-0.241
14.717,-0.247
14.719,-0.254
14.722,-0.268
14.725,-0.288
14.728,-0.278
14.731,-0.261
14.733,-0.251
14.736,-0.254
14.739,-0.258
14.742,-0.271
14.744,-0.278
14.747,-0.258
14.750,-0.241
14.753,-0.234
14.756,-0.258
14.758,-0.285
14.761,-0.295
14.764,-0.275
14.767,-0.261
14.769,-0.258
14.772,-0.268
14.775,-0.281
14.778,-0.281
14.781,-0.278
14.783,-0.264
14.786,-0.258
14.789,-0.258
14.792,-0.285
14.794,-0.292
14.797,-0.271
14.800,-0.251
14.803,-0.258
14.806,-0.278
14.808,-0.298
14.811,-0.295
14.814,-0.281
14.817,-0.271
14.819,-0.271
14.822,-0.275
14.825,-0.271
14.828,-0.268
14.831,-0.261
14.833,-0.254
14.836,-0.271
14.839,-0.295
14.842,-0.298
14.844,-0.281
14.847,-0.271
14.850,-0.264
14.853,-0.264
14.856,-0.268
14.858,-0.278
14.861,-0.285
14.864,-0.288
14.867,-0.285
14.869,-0.278
14.872,-0.275
14.875,-0.278
14.878,-0.278
14.881,-0.258
14.883,-0.241
14.886,-0.241
14.889,-0.254
14.892,-0.268
14.894,-0.271
14.897,-0.264
14.900,-0.251
14.903,-0.247
14.906,-0.261
14.908,-0.254
14.911,-0.234
14.914,-0.217
14.917,-0.203
14.919,-0.190
14.922,-0.180
14.925,-0.183
14.928,-0.190
14.931,-0.180
14.933,-0.159
14.936,-0.146
14.939,-0.132
14.942,-0.108
14.944,-0.092
14.947,-0.075
14.950,-0.058
14.953,-0.064
14.956,-0.095
14.958,-0.119
14.961,-0.115
14.964,-0.102
14.967,-0.102
14.969,-0.102
14.972,-0.119
14.975,-0.142
14.978,-0.159
14.981,-0.163
14.983,-0.149
14.986,-0.136
14.989,-0.146
14.992,-0.176
14.994,-0.207
14.997,-0.224
15.000,-0.224
15.003,-0.247
15.006,-0.285
15.008,-0.305
15.011,-0.312
15.014,-0.315
15.017,-0.305
15.019,-0.298
15.022,-0.312
15.025,-0.336
15.028,-0.339
15.031,-0.332
15.033,-0.315
15.036,-0.322
15.039,-0.329
15.042,-0.336
15.044,-0.336
15.047,-0.325
15.050,-0.305
15.053,-0.312
15.056,-0.319
15.058,-0.319
15.061,-0.336
15.064,-0.346
15.067,-0.363
15.069,-0.353
15.072,-0.292
15.075,-0.217
15.078,-0.146
15.081,-0.007
15.083,0.210
15.086,0.512
15.089,0.908
15.092,1.478
15.094,2.180
15.097,2.881
15.100,3.369
15.103,3.444
15.106,3.139
15.108,2.688
15.111,2.156
15.114,1.454
15.117,0.580
15.119,-0.166
15.122,-0.614
15.125,-0.807
15.128,-0.776
15.131,-0.624
15.133,-0.502
15.136,-0.464
15.139,-0.475
15.142,-0.468
15.144,-0.434
15.147,-0.397
15.150,-0.349
15.153,-0.336
15.156,-0.336
15.158,-0.346
15.161,-0.346
15.164,-0.339
15.167,-0.325
15.169,-0.322
15.172,-0.329
15.175,-0.339
15.178,-0.332
15.181,-0.322
15.183,-0.319
15.186,-0.315
15.189,-0.325
15.192,-0.332
15.194,-0.332
15.197,-0.339
15.200,-0.325
15.203,-0.308
15.206,-0.308
15.208,-0.315
15.211,-0.312
15.214,-0.302
15.217,-0.288
15.219,-0.285
15.222,-0.295
15.225,-0.308
15.228,-0.315
15.231,-0.308
15.233,-0.295
15.236,-0.271
15.239,-0.271
15.242,-0.288
15.244,-0.285
15.247,-0.275
15.250,-0.275
15.253,-0.281
15.256,-0.288
15.258,-0.288
15.261,-0.281
15.264,-0.268
15.267,-0.251
15.269,-0.247
15.272,-0.258
15.275,-0.258
15.278,-0.244
15.281,-0.231
15.283,-0.207
15.286,-0.210
15.289,-0.234
15.292,-0.237
15.294,-0.224
15.297,-0.193
15.300,-0.169
15.303,-0.166
15.306,-0.163
15.308,-0.156
15.311,-0.146
15.314,-0.125
15.317,-0.105
15.319,-0.095
15.322,-0.095
15.325,-0.088
15.328,-0.061
15.331,-0.031
15.333,0.003
15.336,0.020
15.339,0.041
15.342,0.061
15.344,0.092
15.347,0.122
15.350,0.139
15.353,0.159
15.356,0.183
15.358,0.203
15.361,0.234
15.364,0.285
15.367,0.325
15.369,0.342
15.372,0.366
15.375,0.397
15.378,0.414
15.381,0.431
15.383,0.451
15.386,0.475
15.389,0.488
15.392,0.485
15.394,0.495
15.397,0.515
15.400,0.546
15.403,0.556
15.406,0.553
15.408,0.549
15.411,0.542
15.414,0.542
15.417,0.542
15.419,0.536
15.422,0.525
15.425,0.519
15.428,0.502
15.431,0.481
15.433,0.475
15.436,0.447
15.439,0.403
15.442,0.363
15.444,0.332
15.447,0.312
15.450,0.305
15.453,0.268
15.456,0.220
15.458,0.176
15.461,0.132
15.464,0.095
15.467,0.071
15.469,0.037
15.472,0.000
15.475,-0.034
15.478,-0.058
15.481,-0.064
15.483,-0.081
15.486,-0.105
15.489,-0.139
15.492,-0.169
15.494,-0.186
15.497,-0.193
15.500,-0.200
15.503,-0.217
15.506,-0.241
15.508,-0.254
15.511,-0.251
15.514,-0.241
15.517,-0.241
15.519,-0.251
15.522,-0.261
15.525,-0.281
15.528,-0.288
15.531,-0.275
15.533,-0.251
15.536,-0.258
15.539,-0.288
15.542,-0.308
15.544,-0.315
15.547,-0.298
15.550,-0.264
15.553,-0.251
15.556,-0.278
15.558,-0.322
15.561,-0.342
15.564,-0.332
15.567,-0.302
15.569,-0.288
15.572,-0.305
15.575,-0.332
15.578,-0.342
15.581,-0.332
15.583,-0.312
15.586,-0.308
15.589,-0.315
15.592,-0.336
15.594,-0.336
15.597,-0.322
15.600,-0.312
15.603,-0.315
15.606,-0.319
15.608,-0.329
15.611,-0.336
15.614,-0.322
15.617,-0.315
15.619,-0.312
15.622,-0.315
15.625,-0.315
15.628,-0.315
15.631,-0.298
15.633,-0.288
15.636,-0.292
15.639,-0.288
15.642,-0.281
15.644,-0.281
15.647,-0.271
15.650,-0.254
15.653,-0.251
15.656,-0.264
15.658,-0.258
15.661,-0.251
15.664,-0.244
15.667,-0.241
15.669,-0.231
15.672,-0.234
15.675,-0.241
15.678,-0.244
15.681,-0.234
15.683,-0.210
15.686,-0.207
15.689,-0.214
15.692,-0.231
15.694,-0.234
15.697,-0.231
15.700,-0.227
15.703,-0.224
15.706,-0.234
15.708,-0.254
15.711,-0.258
15.714,-0.241
15.717,-0.217
15.719,-0.224
15.722,-0.241
15.725,-0.244
15.728,-0.251
15.731,-0.251
15.733,-0.244
15.736,-0.237
15.739,-0.237
15.742,-0.251
15.744,-0.261
15.747,-0.258
15.750,-0.237
15.753,-0.227
15.756,-0.231
15.758,-0.261
15.761,-0.285
15.764,-0.264
15.767,-0.251
15.769,-0.247
15.772,-0.261
15.775,-0.258
15.778,-0.251
15.781,-0.254
15.783,-0.258
15.786,-0.261
15.789,-0.264
15.792,-0.268
15.794,-0.275
15.797,-0.268
15.800,-0.258
15.803,-0.251
15.806,-0.254
15.808,-0.261
15.811,-0.264
15.814,-0.251
15.817,-0.251
15.819,-0.275
15.822,-0.288
15.825,-0.278
15.828,-0.271
15.831,-0.268
15.833,-0.258
15.836,-0.247
15.839,-0.254
15.842,-0.268
15.844,-0.288
15.847,-0.281
15.850,-0.271
15.853,-0.261
15.856,-0.268
15.858,-0.288
15.861,-0.281
15.864,-0.268
15.867,-0.268
15.869,-0.268
15.872,-0.254
15.875,-0.251
15.878,-0.258
15.881,-0.268
15.883,-0.275
15.886,-0.278
15.889,-0.275
15.892,-0.288
15.894,-0.285
15.897,-0.275
15.900,-0.258
15.903,-0.258
15.906,-0.275
15.908,-0.281
15.911,-0.268
15.914,-0.258
15.917,-0.251
15.919,-0.247
15.922,-0.261
15.925,-0.285
15.928,-0.275
15.931,-0.244
15.933,-0.227
15.936,-0.210
15.939,-0.207
15.942,-0.210
15.944,-0.210
15.947,-0.200
15.950,-0.186
15.953,-0.173
15.956,-0.163
15.958,-0.166
15.961,-0.159
15.964,-0.132
15.967,-0.105
15.969,-0.095
15.972,-0.095
15.975,-0.102
15.978,-0.095
15.981,-0.081
15.983,-0.081
15.986,-0.095
15.989,-0.102
15.992,-0.105
15.994,-0.095
15.997,-0.085
16.000,-0.112
16.003,-0.142
16.006,-0.166
16.008,-0.173
16.011,-0.173
16.014,-0.166
16.017,-0.166
16.019,-0.176
16.022,-0.186
16.025,-0.197
16.028,-0.214
16.031,-0.231
16.033,-0.264
16.036,-0.312
16.039,-0.329
16.042,-0.336
16.044,-0.332
16.047,-0.319
16.050,-0.315
16.053,-0.319
16.056,-0.336
16.058,-0.342
16.061,-0.339
16.064,-0.325
16.067,-0.305
16.069,-0.305
16.072,-0.322
16.075,-0.332
16.078,-0.319
16.081,-0.305
16.083,-0.315
16.086,-0.332
16.089,-0.359
16.092,-0.376
16.094,-0.366
16.097,-0.302
16.100,-0.203
16.103,-0.088
16.106,0.051
16.108,0.268
16.111,0.569
16.114,1.007
16.117,1.607
16.119,2.319
16.122,2.997
16.125,3.427
16.128,3.437
16.131,3.136
16.133,2.722
16.136,2.197
16.139,1.454
16.142,0.549
16.144,-0.176
16.147,-0.576
16.150,-0.719
16.153,-0.671
16.156,-0.546
16.158,-0.464
16.161,-0.437
16.164,-0.434
16.167,-0.431
16.169,-0.414
16.172,-0.390
16.175,-0.359
16.178,-0.336
16.181,-0.319
16.183,-0.302
16.186,-0.302
16.189,-0.325
16.192,-0.349
16.194,-0.356
16.197,-0.353
16.200,-0.336
16.203,-0.325
16.206,-0.332
16.208,-0.339
16.211,-0.336
16.214,-0.325
16.217,-0.319
16.219,-0.305
16.222,-0.305
16.225,-0.319
16.228,-0.319
16.231,-0.308
16.233,-0.295
16.236,-0.285
16.239,-0.295
16.242,-0.312
16.244,-0.312
16.247,-0.302
16.250,-0.285
16.253,-0.271
16.256,-0.268
16.258,-0.285
16.261,-0.295
16.264,-0.292
16.267,-0.278
16.269,-0.264
16.272,-0.261
16.275,-0.261
16.278,-0.268
16.281,-0.254
16.283,-0.241
16.286,-0.251
16.289,-0.258
16.292,-0.268
16.294,-0.261
16.297,-0.251
16.300,-0.237
16.303,-0.231
16.306,-0.231
16.308,-0.234
16.311,-0.217
16.314,-0.210
16.317,-0.203
16.319,-0.190
16.322,-0.180
16.325,-0.176
16.328,-0.180
16.331,-0.159
16.333,-0.139
16.336,-0.122
16.339,-0.122
16.342,-0.115
16.344,-0.102
16.347,-0.064
16.350,-0.020
16.353,0.007
16.356,0.017
16.358,0.007
16.361,0.014
16.364,0.051
16.367,0.088
16.369,0.119
16.372,0.136
16.375,0.153
16.378,0.183
16.381,0.227
16.383,0.275
16.386,0.292
16.389,0.312
16.392,0.336
16.394,0.366
16.397,0.393
16.400,0.407
16.403,0.420
16.406,0.444
16.408,0.464
16.411,0.481
16.414,0.505
16.417,0.525
16.419,0.539
16.422,0.542
16.425,0.542
16.428,0.556
16.431,0.573
16.433,0.586
16.436,0.586
16.439,0.569
16.442,0.556
16.444,0.553
16.447,0.556
16.450,0.553
16.453,0.542
16.456,0.515
16.458,0.475
16.461,0.441
16.464,0.420
16.467,0.400
16.469,0.359
16.472,0.329
16.475,0.302
16.478,0.254
16.481,0.214
16.483,0.186
16.486,0.156
16.489,0.119
16.492,0.081
16.494,0.051
16.497,0.027
16.500,0.003
16.503,-0.020
16.506,-0.044
16.508,-0.061
16.511,-0.085
16.514,-0.122
16.517,-0.163
16.519,-0.190
16.522,-0.190
16.525,-0.200
16.528,-0.203
16.531,-0.207
16.533,-0.207
16.536,-0.210
16.539,-0.220
16.542,-0.244
16.544,-0.261
16.547,-0.251
16.550,-0.227
16.553,-0.234
16.556,-0.244
16.558,-0.254
16.561,-0.251
16.564,-0.264
16.567,-0.261
16.569,-0.241
16.572,-0.237
16.575,-0.258
16.578,-0.275
16.581,-0.261
16.583,-0.247
16.586,-0.254
16.589,-0.281
16.592,-0.298
16.594,-0.295
16.597,-0.275
16.600,-0.251
16.603,-0.254
16.606,-0.268
16.608,-0.278
16.611,-0.298
16.614,-0.308
16.617,-0.295
16.619,-0.281
16.622,-0.285
16.625,-0.288
16.628,-0.295
16.631,-0.315
16.633,-0.315
16.636,-0.302
16.639,-0.295
16.642,-0.295
16.644,-0.288
16.647,-0.278
16.650,-0.275
16.653,-0.271
16.656,-0.278
16.658,-0.288
16.661,-0.281
16.664,-0.264
16.667,-0.254
16.669,-0.244
16.672,-0.241
16.675,-0.254
16.678,-0.251
16.681,-0.251
16.683,-0.237
16.686,-0.227
16.689,-0.220
16.692,-0.224
16.694,-0.227
16.697,-0.227
16.700,-0.210
16.703,-0.207
16.706,-0.210
16.708,-0.217
16.711,-0.217
16.714,-0.203
16.717,-0.197
16.719,-0.210
16.722,-0.224
16.725,-0.220
16.728,-0.217
16.731,-0.210
16.733,-0.190
16.736,-0.176
16.739,-0.176
16.742,-0.203
16.744,-0.231
16.747,-0.241
16.750,-0.231
16.753,-0.224
16.756,-0.234
16.758,-0.241
16.761,-0.237
16.764,-0.227
16.767,-0.231
16.769,-0.234
16.772,-0.231
16.775,-0.220
16.778,-0.227
16.781,-0.234
16.783,-0.227
16.786,-0.214
16.789,-0.214
16.792,-0.227
16.794,-0.237
16.797,-0.234
16.800,-0.231
16.803,-0.234
16.806,-0.241
16.808,-0.244
16.811,-0.244
16.814,-0.237
16.817,-0.231
16.819,-0.231
16.822,-0.241
16.825,-0.241
16.828,-0.231
16.831,-0.217
16.833,-0.237
16.836,-0.251
16.839,-0.244
16.842,-0.241
16.844,-0.258
16.847,-0.258
16.850,-0.241
16.853,-0.231
16.856,-0.234
16.858,-0.247
16.861,-0.268
16.864,-0.264
16.867,-0.247
16.869,-0.237
16.872,-0.241
16.875,-0.254
16.878,-0.258
16.881,-0.258
16.883,-0.254
16.886,-0.247
16.889,-0.247
16.892,-0.254
16.894,-0.264
16.897,-0.254
16.900,-0.241
16.903,-0.231
16.906,-0.247
16.908,-0.261
16.911,-0.251
16.914,-0.227
16.917,-0.231
16.919,-0.251
16.922,-0.261
16.925,-0.258
16.928,-0.258
16.931,-0.254
16.933,-0.244
16.936,-0.247
16.939,-0.258
16.942,-0.261
16.944,-0.261
16.947,-0.258
16.950,-0.231
16.953,-0.203
16.956,-0.207
16.958,-0.217
16.961,-0.214
16.964,-0.183
16.967,-0.149
16.969,-0.139
16.972,-0.142
16.975,-0.156
16.978,-0.169
16.981,-0.153
16.983,-0.119
16.986,-0.088
16.989,-0.075
16.992,-0.081
16.994,-0.095
16.997,-0.088
17.000,-0.081
17.003,-0.088
17.006,-0.092
17.008,-0.088
17.011,-0.081
17.014,-0.064
17.017,-0.051
17.019,-0.064
17.022,-0.092
17.025,-0.122
17.028,-0.146
17.031,-0.146
17.033,-0.129
17.036,-0.136
17.039,-0.163
17.042,-0.200
17.044,-0.224
17.047,-0.231
17.050,-0.224
17.053,-0.227
17.056,-0.244
17.058,-0.275
17.061,-0.295
17.064,-0.298
17.067,-0.295
17.069,-0.288
17.072,-0.302
17.075,-0.315
17.078,-0.315
17.081,-0.315
17.083,-0.302
17.086,-0.292
17.089,-0.305
17.092,-0.315
17.094,-0.308
17.097,-0.295
17.100,-0.288
17.103,-0.298
17.106,-0.315
17.108,-0.332
17.111,-0.353
17.114,-0.369
17.117,-0.336
17.119,-0.251
17.122,-0.159
17.125,-0.054
17.128,0.112
17.131,0.366
17.133,0.708
17.136,1.203
17.139,1.861
17.142,2.597
17.144,3.224
17.147,3.532
17.150,3.400
17.153,3.020
17.156,2.553
17.158,1.963
17.161,1.136
17.164,0.258
17.167,-0.349
17.169,-0.658
17.172,-0.722
17.175,-0.624
17.178,-0.495
17.181,-0.417
17.183,-0.390
17.186,-0.397
17.189,-0.407
17.192,-0.400
17.194,-0.363
17.197,-0.332
17.200,-0.322
17.203,-0.308
17.206,-0.315
17.208,-0.329
17.211,-0.336
17.214,-0.325
17.217,-0.308
17.219,-0.308
17.222,-0.319
17.225,-0.308
17.228,-0.308
17.231,-0.305
17.233,-0.305
17.236,-0.312
17.239,-0.322
17.242,-0.325
17.244,-0.325
17.247,-0.312
17.250,-0.295
17.253,-0.302
17.256,-0.312
17.258,-0.312
17.261,-0.308
17.264,-0.302
17.267,-0.285
17.269,-0.278
17.272,-0.285
17.275,-0.285
17.278,-0.278
17.281,-0.288
17.283,-0.288
17.286,-0.292
17.289,-0.285
17.292,-0.278
17.294,-0.271
17.297,-0.264
17.300,-0.258
17.303,-0.247
17.306,-0.247
17.308,-0.261
17.311,-0.264
17.314,-0.254
17.317,-0.247
17.319,-0.251
17.322,-0.247
17.325,-0.241
17.328,-0.241
17.331,-0.227
17.333,-0.200
17.336,-0.180
17.339,-0.186
17.342,-0.210
17.344,-0.214
17.347,-0.186
17.350,-0.156
17.353,-0.146
17.356,-0.142
17.358,-0.132
17.361,-0.112
17.364,-0.095
17.367,-0.085
17.369,-0.061
17.372,-0.041
17.375,-0.031
17.378,-0.020
17.381,0.017
17.383,0.058
17.386,0.085
17.389,0.092
17.392,0.095
17.394,0.125
17.397,0.169
17.400,0.220
17.403,0.254
17.406,0.264
17.408,0.281
17.411,0.308
17.414,0.349
17.417,0.386
17.419,0.400
17.422,0.407
17.425,0.414
17.428,0.437
17.431,0.475
17.433,0.505
17.436,0.522
17.439,0.522
17.442,0.525
17.444,0.539
17.447,0.563
17.450,0.569
17.453,0.563
17.456,0.553
17.458,0.542
17.461,0.539
17.464,0.539
17.467,0.549
17.469,0.536
17.472,0.519
17.475,0.492
17.478,0.475
17.481,0.458
17.483,0.434
17.486,0.403
17.489,0.356
17.492,0.315
17.494,0.285
17.497,0.261
17.500,0.244
17.503,0.220
17.506,0.180
17.508,0.129
17.511,0.078
17.514,0.034
17.517,0.007
17.519,-0.014
17.522,-0.041
17.525,-0.081
17.528,-0.105
17.531,-0.115
17.533,-0.129
17.536,-0.136
17.539,-0.156
17.542,-0.183
17.544,-0.200
17.547,-0.200
17.550,-0.190
17.553,-0.183
17.556,-0.203
17.558,-0.234
17.561,-0.254
17.564,-0.258
17.567,-0.247
17.569,-0.251
17.572,-0.254
17.575,-0.258
17.578,-0.271
17.581,-0.271
17.583,-0.254
17.586,-0.247
17.589,-0.264
17.592,-0.281
17.594,-0.292
17.597,-0.295
17.600,-0.285
17.603,-0.281
17.606,-0.295
17.608,-0.305
17.611,-0.288
17.614,-0.271
17.617,-0.268
17.619,-0.278
17.622,-0.292
17.625,-0.302
17.628,-0.312
17.631,-0.322
17.633,-0.325
17.636,-0.312
17.639,-0.308
17.642,-0.325
17.644,-0.332
17.647,-0.332
17.650,-0.312
17.653,-0.302
17.656,-0.308
17.658,-0.319
17.661,-0.308
17.664,-0.292
17.667,-0.288
17.669,-0.292
17.672,-0.305
17.675,-0.315
17.678,-0.312
17.681,-0.302
17.683,-0.281
17.686,-0.275
17.689,-0.281
17.692,-0.292
17.694,-0.288
17.697,-0.271
17.700,-0.251
17.703,-0.247
17.706,-0.271
17.708,-0.278
17.711,-0.258
17.714,-0.227
17.717,-0.207
17.719,-0.207
17.722,-0.210
17.725,-0.234
17.728,-0.244
17.731,-0.247
17.733,-0.237
17.736,-0.227
17.739,-0.231
17.742,-0.251
17.744,-0.247
17.747,-0.224
17.750,-0.217
17.753,-0.227
17.756,-0.227
17.758,-0.220
17.761,-0.217
17.764,-0.224
17.767,-0.227
17.769,-0.231
17.772,-0.244
17.775,-0.254
17.778,-0.247
17.781,-0.234
17.783,-0.227
17.786,-0.237
17.789,-0.244
17.792,-0.251
17.794,-0.254
17.797,-0.244
17.800,-0.231
17.803,-0.241
17.806,-0.268
17.808,-0.281
17.811,-0.264
17.814,-0.237
17.817,-0.234
17.819,-0.241
17.822,-0.244
17.825,-0.251
17.828,-0.261
17.831,-0.251
17.833,-0.237
17.836,-0.241
17.839,-0.237
17.842,-0.244
17.844,-0.247
17.847,-0.244
17.850,-0.237
17.853,-0.220
17.856,-0.217
17.858,-0.251
17.861,-0.275
17.864,-0.268
17.867,-0.261
17.869,-0.258
17.872,-0.244
17.875,-0.237
17.878,-0.251
17.881,-0.271
17.883,-0.268
17.886,-0.251
17.889,-0.247
17.892,-0.261
17.894,-0.264
17.897,-0.264
17.900,-0.251
17.903,-0.241
17.906,-0.254
17.908,-0.271
17.911,-0.271
17.914,-0.261
17.917,-0.234
17.919,-0.234
17.922,-0.254
17.925,-0.258
17.928,-0.254
17.931,-0.251
17.933,-0.244
17.936,-0.241
17.939,-0.244
17.942,-0.264
17.944,-0.278
17.947,-0.275
17.950,-0.258
17.953,-0.234
17.956,-0.224
17.958,-0.258
17.961,-0.271
17.964,-0.264
17.967,-0.237
17.969,-0.241
17.972,-0.254
17.975,-0.251
17.978,-0.258
17.981,-0.254
17.983,-0.241
17.986,-0.224
17.989,-0.227
17.992,-0.244
17.994,-0.261
17.997,-0.268
18.000,-0.264
18.003,-0.247
18.006,-0.231
18.008,-0.227
18.011,-0.217
18.014,-0.193
18.017,-0.186
18.019,-0.190
18.022,-0.197
18.025,-0.190
18.028,-0.173
18.031,-0.149
18.033,-0.129
18.036,-0.112
18.039,-0.088
18.042,-0.081
18.044,-0.095
18.047,-0.088
18.050,-0.064
18.053,-0.054
18.056,-0.051
18.058,-0.054
18.061,-0.051
18.064,-0.037
18.067,-0.024
18.069,-0.041
18.072,-0.075
18.075,-0.112
18.078,-0.146
18.081,-0.142
18.083,-0.129
18.086,-0.129
18.089,-0.139
18.092,-0.156
18.094,-0.190
18.097,-0.214
18.100,-0.227
18.103,-0.227
18.106,-0.241
18.108,-0.271
18.111,-0.271
18.114,-0.264
18.117,-0.275
18.119,-0.288
18.122,-0.295
18.125,-0.315
18.128,-0.325
18.131,-0.319
18.133,-0.308
18.136,-0.308
18.139,-0.315
18.142,-0.322
18.144,-0.315
18.147,-0.295
18.150,-0.281
18.153,-0.288
18.156,-0.302
18.158,-0.319
18.161,-0.342
18.164,-0.339
18.167,-0.298
18.169,-0.214
18.172,-0.112
18.175,0.000
18.178,0.180
18.181,0.458
18.183,0.847
18.186,1.390
18.189,2.058
18.192,2.742
18.194,3.288
18.197,3.458
18.200,3.180
18.203,2.692
18.206,2.156
18.208,1.498
18.211,0.647
18.214,-0.102
18.217,-0.559
18.219,-0.783
18.222,-0.807
18.225,-0.685
18.228,-0.549
18.231,-0.485
18.233,-0.461
18.236,-0.441
18.239,-0.386
18.242,-0.349
18.244,-0.342
18.247,-0.356
18.250,-0.346
18.253,-0.329
18.256,-0.329
18.258,-0.336
18.261,-0.322
18.264,-0.315
18.267,-0.305
18.269,-0.288
18.272,-0.285
18.275,-0.305
18.278,-0.308
18.281,-0.302
18.283,-0.302
18.286,-0.312
18.289,-0.322
18.292,-0.319
18.294,-0.319
18.297,-0.308
18.300,-0.292
18.303,-0.285
18.306,-0.295
18.308,-0.295
18.311,-0.288
18.314,-0.285
18.317,-0.292
18.319,-0.288
18.322,-0.285
18.325,-0.298
18.328,-0.298
18.331,-0.278
18.333,-0.271
18.336,-0.275
18.339,-0.275
18.342,-0.281
18.344,-0.295
18.347,-0.271
18.350,-0.261
18.353,-0.271
18.356,-0.278
18.358,-0.271
18.361,-0.268
18.364,-0.258
18.367,-0.237
18.369,-0.231
18.372,-0.237
18.375,-0.247
18.378,-0.231
18.381,-0.200
18.383,-0.176
18.386,-0.176
18.389,-0.186
18.392,-0.197
18.394,-0.203
18.397,-0.203
18.400,-0.186
18.403,-0.156
18.406,-0.136
18.408,-0.119
18.411,-0.102
18.414,-0.078
18.417,-0.054
18.419,-0.058
18.422,-0.051
18.425,-0.034
18.428,-0.014
18.431,0.014
18.433,0.051
18.436,0.102
18.439,0.136
18.442,0.139
18.444,0.139
18.447,0.146
18.450,0.180
18.453,0.227
18.456,0.264
18.458,0.278
18.461,0.302
18.464,0.339
18.467,0.383
18.469,0.407
18.472,0.414
18.475,0.434
18.478,0.464
18.481,0.485
18.483,0.498
18.486,0.498
18.489,0.478
18.492,0.471
18.494,0.498
18.497,0.532
18.500,0.549
18.503,0.549
18.506,0.549
18.508,0.536
18.511,0.532
18.514,0.549
18.517,0.542
18.519,0.512
18.522,0.492
18.525,0.468
18.528,0.441
18.531,0.427
18.533,0.417
18.536,0.383
18.539,0.346
18.542,0.312
18.544,0.285
18.547,0.254
18.550,0.231
18.553,0.197
18.556,0.153
18.558,0.102
18.561,0.068
18.564,0.054
18.567,0.037
18.569,0.020
18.572,-0.003
18.575,-0.034
18.578,-0.068
18.581,-0.095
18.583,-0.119
18.586,-0.139
18.589,-0.163
18.592,-0.193
18.594,-0.210
18.597,-0.210
18.600,-0.207
18.603,-0.217
18.606,-0.231
18.608,-0.244
18.611,-0.254
18.614,-0.258
18.617,-0.247
18.619,-0.254
18.622,-0.264
18.625,-0.278
18.628,-0.288
18.631,-0.292
18.633,-0.292
18.636,-0.298
18.639,-0.319
18.642,-0.339
18.644,-0.325
18.647,-0.308
18.650,-0.285
18.653,-0.292
18.656,-0.315
18.658,-0.329
18.661,-0.332
18.664,-0.319
18.667,-0.315
18.669,-0.342
18.672,-0.353
18.675,-0.342
18.678,-0.339
18.681,-0.339
18.683,-0.336
18.686,-0.325
18.689,-0.319
18.692,-0.339
18.694,-0.346
18.697,-0.325
18.700,-0.319
18.703,-0.322
18.706,-0.322
18.708,-0.325
18.711,-0.319
18.714,-0.295
18.717,-0.278
18.719,-0.271
18.722,-0.271
18.725,-0.281
18.728,-0.285
18.731,-0.271
18.733,-0.251
18.736,-0.234
18.739,-0.231
18.742,-0.241
18.744,-0.244
18.747,-0.254
18.750,-0.244
18.753,-0.241
18.756,-0.241
18.758,-0.231
18.761,-0.217
18.764,-0.217
18.767,-0.224
18.769,-0.217
18.772,-0.220
18.775,-0.234
18.778,-0.244
18.781,-0.224
18.783,-0.207
18.786,-0.207
18.789,-0.224
18.792,-0.241
18.794,-0.220
18.797,-0.190
18.800,-0.183
18.803,-0.210
18.806,-0.241
18.808,-0.247
18.811,-0.244
18.814,-0.241
18.817,-0.241
18.819,-0.254
18.822,-0.261
18.825,-0.261
18.828,-0.251
18.831,-0.227
18.833,-0.227
18.836,-0.247
18.839,-0.264
18.842,-0.261
18.844,-0.258
18.847,-0.251
18.850,-0.241
18.853,-0.237
18.856,-0.244
18.858,-0.241
18.861,-0.251
18.864,-0.254
18.867,-0.244
18.869,-0.231
18.872,-0.241
18.875,-0.281
18.878,-0.292
18.881,-0.264
18.883,-0.241
18.886,-0.244
18.889,-0.258
18.892,-0.258
18.894,-0.258
18.897,-0.254
18.900,-0.251
18.903,-0.264
18.906,-0.285
18.908,-0.281
18.911,-0.258
18.914,-0.244
18.917,-0.234
18.919,-0.241
18.922,-0.261
18.925,-0.278
18.928,-0.285
18.931,-0.275
18.933,-0.268
18.936,-0.275
18.939,-0.275
18.942,-0.281
18.944,-0.281
18.947,-0.264
18.950,-0.254
18.953,-0.258
18.956,-0.271
18.958,-0.285
18.961,-0.285
18.964,-0.271
18.967,-0.254
18.969,-0.251
18.972,-0.264
18.975,-0.271
18.978,-0.275
18.981,-0.278
18.983,-0.268
18.986,-0.258
18.989,-0.258
18.992,-0.271
18.994,-0.278
18.997,-0.275
19.000,-0.261
19.003,-0.264
19.006,-0.264
19.008,-0.271
19.011,-0.271
19.014,-0.258
19.017,-0.251
19.019,-0.261
19.022,-0.278
19.025,-0.281
19.028,-0.285
19.031,-0.278
19.033,-0.254
19.036,-0.251
19.039,-0.258
19.042,-0.271
19.044,-0.275
19.047,-0.261
19.050,-0.241
19.053,-0.234
19.056,-0.231
19.058,-0.231
19.061,-0.227
19.064,-0.193
19.067,-0.163
19.069,-0.169
19.072,-0.190
19.075,-0.197
19.078,-0.176
19.081,-0.163
19.083,-0.139
19.086,-0.122
19.089,-0.105
19.092,-0.102
19.094,-0.088
19.097,-0.068
19.100,-0.051
19.103,-0.058
19.106,-0.081
19.108,-0.098
19.111,-0.095
19.114,-0.071
19.117,-0.075
19.119,-0.098
19.122,-0.132
19.125,-0.156
19.128,-0.159
19.131,-0.149
19.133,-0.159
19.136,-0.186
19.139,-0.207
19.142,-0.227
19.144,-0.241
19.147,-0.251
19.150,-0.261
19.153,-0.271
19.156,-0.278
19.158,-0.305
19.161,-0.315
19.164,-0.302
19.167,-0.292
19.169,-0.292
19.172,-0.298
19.175,-0.312
19.178,-0.325
19.181,-0.325
19.183,-0.322
19.186,-0.322
19.189,-0.329
19.192,-0.336
19.194,-0.325
19.197,-0.315
19.200,-0.302
19.203,-0.298
19.206,-0.339
19.208,-0.383
19.211,-0.397
19.214,-0.373
19.217,-0.302
19.219,-0.203
19.222,-0.105
19.225,0.017
19.228,0.227
19.231,0.539
19.233,0.953
19.236,1.519
19.239,2.214
19.242,2.902
19.244,3.390
19.247,3.461
19.250,3.169
19.253,2.712
19.256,2.153
19.258,1.390
19.261,0.488
19.264,-0.231
19.267,-0.658
19.269,-0.864
19.272,-0.861
19.275,-0.719
19.278,-0.583
19.281,-0.508
19.283,-0.471
19.286,-0.441
19.289,-0.427
19.292,-0.410
19.294,-0.393
19.297,-0.373
19.300,-0.349
19.303,-0.346
19.306,-0.329
19.308,-0.312
19.311,-0.312
19.314,-0.315
19.317,-0.298
19.319,-0.298
19.322,-0.312
19.325,-0.336
19.328,-0.349
19.331,-0.325
19.333,-0.302
19.336,-0.308
19.339,-0.305
19.342,-0.298
19.344,-0.302
19.347,-0.305
19.350,-0.281
19.353,-0.278
19.356,-0.288
19.358,-0.295
19.361,-0.292
19.364,-0.285
19.367,-0.292
19.369,-0.292
19.372,-0.302
19.375,-0.319
19.378,-0.315
19.381,-0.292
19.383,-0.264
19.386,-0.264
19.389,-0.264
19.392,-0.261
19.394,-0.271
19.397,-0.285
19.400,-0.275
19.403,-0.264
19.406,-0.258
19.408,-0.261
19.411,-0.258
19.414,-0.261
19.417,-0.258
19.419,-0.247
19.422,-0.237
19.425,-0.241
19.428,-0.231
19.431,-0.217
19.433,-0.200
19.436,-0.197
19.439,-0.193
19.442,-0.197
19.444,-0.180
19.447,-0.156
19.450,-0.142
19.453,-0.136
19.456,-0.132
19.458,-0.136
19.461,-0.112
19.464,-0.085
19.467,-0.054
19.469,-0.041
19.472,-0.027
19.475,-0.017
19.478,-0.010
19.481,0.010
19.483,0.054
19.486,0.088
19.489,0.105
19.492,0.115
19.494,0.136
19.497,0.176
19.500,0.224
19.503,0.251
19.506,0.264
19.508,0.292
19.511,0.322
19.514,0.349
19.517,0.386
19.519,0.410
19.522,0.431
19.525,0.441
19.528,0.424
19.531,0.427
19.533,0.458
19.536,0.495
19.539,0.522
19.542,0.532
19.544,0.508
19.547,0.512
19.550,0.542
19.553,0.563
19.556,0.549
19.558,0.519
19.561,0.508
19.564,0.519
19.567,0.525
19.569,0.515
19.572,0.485
19.575,0.458
19.578,0.437
19.581,0.410
19.583,0.383
19.586,0.349
19.589,0.332
19.592,0.288
19.594,0.247
19.597,0.234
19.600,0.224
19.603,0.176
19.606,0.122
19.608,0.081
19.611,0.058
19.614,0.031
19.617,0.007
19.619,-0.017
19.622,-0.054
19.625,-0.095
19.628,-0.122
19.631,-0.136
19.633,-0.136
19.636,-0.139
19.639,-0.146
19.642,-0.163
19.644,-0.200
19.647,-0.231
19.650,-0.237
19.653,-0.244
19.656,-0.254
19.658,-0.264
19.661,-0.258
19.664,-0.237
19.667,-0.251
19.669,-0.268
19.672,-0.268
19.675,-0.271
19.678,-0.288
19.681,-0.308
19.683,-0.325
19.686,-0.319
19.689,-0.315
19.692,-0.332
19.694,-0.346
19.697,-0.322
19.700,-0.308
19.703,-0.322
19.706,-0.342
19.708,-0.349
19.711,-0.339
19.714,-0.349
19.717,-0.353
19.719,-0.353
19.722,-0.349
19.725,-0.339
19.728,-0.346
19.731,-0.342
19.733,-0.322
19.736,-0.315
19.739,-0.312
19.742,-0.346
19.744,-0.359
19.747,-0.342
19.750,-0.315
19.753,-0.308
19.756,-0.308
19.758,-0.302
19.761,-0.292
19.764,-0.285
19.767,-0.285
19.769,-0.285
19.772,-0.281
19.775,-0.275
19.778,-0.268
19.781,-0.258
19.783,-0.244
19.786,-0.241
19.789,-0.244
19.792,-0.258
19.794,-0.264
19.797,-0.244
19.800,-0.217
19.803,-0.200
19.806,-0.200
19.808,-0.207
19.811,-0.210
19.814,-0.197
19.817,-0.169
19.819,-0.149
19.822,-0.163
19.825,-0.197
19.828,-0.231
19.831,-0.231
19.833,-0.224
19.836,-0.231
19.839,-0.237
19.842,-0.231
19.844,-0.224
19.847,-0.217
19.850,-0.224
19.853,-0.217
19.856,-0.217
19.858,-0.224
19.861,-0.231
19.864,-0.234
19.867,-0.224
19.869,-0.227
19.872,-0.231
19.875,-0.231
19.878,-0.227
19.881,-0.234
19.883,-0.231
19.886,-0.224
19.889,-0.214
19.892,-0.224
19.894,-0.251
19.897,-0.244
19.900,-0.247
19.903,-0.258
19.906,-0.264
19.908,-0.258
19.911,-0.251
19.914,-0.258
19.917,-0.254
19.919,-0.251
19.922,-0.261
19.925,-0.268
19.928,-0.258
19.931,-0.241
19.933,-0.241
19.936,-0.247
19.939,-0.261
19.942,-0.268
19.944,-0.264
19.947,-0.234
19.950,-0.200
19.953,-0.197
19.956,-0.231
19.958,-0.281
19.961,-0.312
19.964,-0.298
19.967,-0.275
19.969,-0.271
19.972,-0.275
19.975,-0.278
19.978,-0.268
19.981,-0.254
19.983,-0.247
19.986,-0.254
19.989,-0.261
19.992,-0.281
19.994,-0.295
19.997,-0.281
